Wavelength (nm),Transmission
354.7958869,1.082432973
359.5981851,0.866346539
364.5761861,0.720488195
369.206496,0.704281713
374.0117658,0.704281713
378.8170357,0.704281713
383.6223055,0.704281713
388.4275754,0.704281713
393.3764783,0.56022409
398.0351433,0.488195278
402.8404132,0.488195278
407.645683,0.488195278
412.4509529,0.488195278
417.2562227,0.488195278
422.0614926,0.488195278
426.8667624,0.488195278
431.6720323,0.488195278
436.4773021,0.488195278
441.282572,0.488195278
446.0428946,0.396358543
450.8901399,0.272108844
455.6954098,0.272108844
460.3262397,0.293717487
464.818309,0.548969588
468.8177786,1.514605842
471.2377485,2.775110044
473.4475313,4.634353741
473.8979325,5.620248099
474.9297133,7.586634654
475.9257593,10.13105242
476.3778321,11.2384954
477.7295928,14.23669468
477.2693478,12.53501401
478.6612268,18.45038015
478.2024676,16.8567427
478.1861232,15.66826731
479.1474743,22.04281713
479.1311299,20.85434174
479.1147854,19.66586635
480.5126078,26.01340536
480.0538487,24.41976791
480.0382471,23.28531413
481.7326223,30.020008
480.981025,28.30932373
480.9646806,27.12084834
482.3491302,32.4959984
481.8903711,30.90236094
482.8026889,33.71148459
483.7090632,36.08843537
483.6934617,34.95398159
485.0730823,39.9779912
484.605408,37.73609444
485.990972,43.19227691
485.530727,41.49059624
486.4638468,45.81232493
486.4475024,44.62384954
487.8300947,49.86394558
487.361306,47.54101641
488.7398122,52.4839936
488.2795672,50.78231293
489.1963426,53.91556623
490.5466175,56.80572229
490.0871154,55.15806323
491.4630214,59.91196479
491.0031478,58.23729492
491.9347818,62.45098039
491.9184373,61.262505
492.832241,64.17967187
493.6531784,66.69707883
494.822847,69.16046419
495.3240274,70.66226491
496.6561006,72.22889156
497.3304332,73.61544618
498.4052544,75.53501401
499.3490353,77.45548219
500.2435228,78.96808723
500.6954098,80.06202481
502.0285973,81.70968387
503.4370683,83.53741497
504.0445373,85.35614246
505.2386731,87.4809924
505.8453991,89.24569828
506.7354289,90.43417367
508.067502,92.00080032
509.8327032,93.29731893
511.6008761,94.80992397
514.2453347,96.51160464
517.9732325,97.58303321
523.0134258,98.78296773
527.5277223,98.80152061
532.9147887,97.24089636
537.6119623,96.18747499
540.868595,94.75590236
542.5951638,93.24329732
544.7585753,91.73069228
546.9217392,90.20008003
548.433849,88.97559024
550.1650611,87.80062025
551.8959018,86.59863946
553.620799,84.96448579
555.1264081,83.26730692
556.8527293,81.73669468
558.5830128,80.49419768
561.1847529,79.08963585
564.2290315,78.0992397
566.3938051,76.68567427
568.1133161,74.65986395
569.8339414,72.71508603
570.6849675,71.06742697
571.5367365,69.47378952
572.3870196,67.77210884
573.2373028,66.07042817
573.8756652,64.84143657
575.6035341,63.42336935
577.3256454,61.58663465
579.0466422,59.66886755
580.9928954,58.24809924
583.1531866,56.50860344
584.873812,54.56382553
586.5959232,52.72709084
588.3269496,51.53861545
590.0537661,50.04401761
592.2159394,48.44137655
594.3810845,47.05482193
596.1043101,45.29911965
597.390693,43.54341737
598.6781903,41.8687475
599.7506095,40.43717487
600.6031214,38.89755902
601.4545189,37.27691076
602.3033162,35.46718687
603.1534136,33.7520008
604.4388679,31.92877151
605.7289655,30.44317727
606.5812917,28.89005602
607.434918,27.43147259
608.5056655,25.87835134
610.6638766,23.98759504
612.8250593,22.31292517
614.8396372,20.56622649
616.7120679,19.07162865
618.8732507,17.39695878
620.5968478,15.66826731
622.7602593,14.15566226
625.4682384,12.53501401
628.1817894,11.31952781
631.2211152,9.968987595
633.6036167,8.505002001
636.2053073,7.096838735
638.8050662,5.548219288
641.8461255,4.323729492
645.9743387,2.739095638
649.526286,1.604641857
653.9310341,0.716286515
659.0022315,0.288315326
663.6325414,0.272108844
668.4378113,0.272108844
673.2430811,0.272108844
678.048351,0.272108844
682.8536208,0.272108844
687.6588907,0.272108844
692.4641605,0.272108844
697.2694304,0.272108844
702.0747002,0.272108844
706.8799701,0.272108844
711.6852399,0.272108844
716.4905098,0.272108844
721.2957796,0.272108844
726.1010495,0.272108844
730.9063193,0.272108844
735.7115892,0.272108844
740.516859,0.272108844
745.3221289,0.272108844
750.1273987,0.272108844
754.9326685,0.272108844
759.7379384,0.272108844
764.5432082,0.272108844
769.3484781,0.272108844
774.1537479,0.272108844
778.9590178,0.272108844
783.7642876,0.272108844
788.5695575,0.272108844
793.3748273,0.272108844
798.1800972,0.272108844
802.985367,0.272108844
807.7906369,0.272108844
812.5959067,0.272108844
817.4011766,0.272108844
822.2064464,0.272108844
827.0117163,0.272108844
831.8169861,0.272108844
836.622256,0.272108844
841.4275258,0.272108844
846.2327957,0.272108844
851.0380655,0.272108844
855.8433354,0.272108844
860.6486052,0.272108844
865.4538751,0.272108844
870.2591449,0.272108844
875.0644148,0.272108844
879.8696846,0.272108844
884.6749545,0.272108844
889.4802243,0.272108844
894.2854942,0.272108844
899.090764,0.272108844
903.8960339,0.272108844
908.7013037,0.272108844
913.5065736,0.272108844
918.3118434,0.272108844
923.1171133,0.272108844
927.9223831,0.272108844
932.7276529,0.272108844
937.5329228,0.272108844
942.3381926,0.272108844
947.1434625,0.272108844
951.9487323,0.272108844
956.7540022,0.272108844
961.559272,0.272108844
966.3645419,0.272108844
971.1698117,0.272108844
975.9750816,0.272108844
980.7803514,0.272108844
985.5856213,0.272108844
990.3908911,0.272108844
995.196161,0.272108844
1000.001431,0.272108844
1004.806701,0.272108844
1009.611971,0.272108844
1014.41724,0.272108844
1019.22251,0.272108844
1024.02778,0.272108844
1028.83305,0.272108844
1033.63832,0.272108844
1038.44359,0.272108844
1043.248859,0.272108844
1046.961899,0.263105242
